[DEFAULT]

version = diffpy.pdfgetx-2.1.1

# input and output specifications
dataformat = twotheta
inputfile = LaB6_0p4mm_011_av10_monitor.xye
backgroundfile = 0p4mm_capillary_018_av17_monitor.xye
outputtype = fq

# PDF calculation setup
mode = xray
wavelength = 0.270793
twothetazero = 0
composition = LaB6
bgscale = 1
rpoly = 1.5
qmaxinst = 23.4501
qmin = 1
qmax = 23
rmin = 0.5
rmax = 50
rstep = 0.01

# End of config --------------------------------------------------------------

#### start data
#S 1
#L Q(Å$^{-1}$)  F(Å$^{-1}$)
1.00066 -0.17264
1.00336 -0.17431
1.00606 -0.175896
1.00875 -0.177477
1.01145 -0.179091
1.01415 -0.180746
1.01684 -0.182368
1.01954 -0.183929
1.02224 -0.185631
1.02494 -0.187486
1.02763 -0.189408
1.03033 -0.191174
1.03303 -0.193001
1.03573 -0.194814
1.03842 -0.196697
1.04112 -0.198686
1.04382 -0.200673
1.04651 -0.202618
1.04921 -0.204503
1.05191 -0.206471
1.05461 -0.208343
1.0573 -0.210056
1.06 -0.211645
1.0627 -0.213303
1.06539 -0.214985
1.06809 -0.216518
1.07079 -0.218025
1.07349 -0.219624
1.07618 -0.221229
1.07888 -0.222818
1.08158 -0.224344
1.08427 -0.226008
1.08697 -0.227725
1.08967 -0.229532
1.09237 -0.231274
1.09506 -0.23287
1.09776 -0.234574
1.10046 -0.236101
1.10316 -0.237601
1.10585 -0.239007
1.10855 -0.240446
1.11125 -0.241761
1.11394 -0.243157
1.11664 -0.244655
1.11934 -0.246196
1.12204 -0.247897
1.12473 -0.249664
1.12743 -0.251453
1.13013 -0.253476
1.13282 -0.255586
1.13552 -0.257686
1.13822 -0.259792
1.14092 -0.262113
1.14361 -0.264555
1.14631 -0.266882
1.14901 -0.269209
1.1517 -0.271342
1.1544 -0.273651
1.1571 -0.275775
1.1598 -0.277839
1.16249 -0.279719
1.16519 -0.281679
1.16789 -0.283799
1.17059 -0.285831
1.17328 -0.287682
1.17598 -0.289534
1.17868 -0.291523
1.18137 -0.293513
1.18407 -0.295386
1.18677 -0.297247
1.18947 -0.299205
1.19216 -0.301252
1.19486 -0.30321
1.19756 -0.305222
1.20025 -0.307226
1.20295 -0.309114
1.20565 -0.311014
1.20835 -0.312787
1.21104 -0.314521
1.21374 -0.31623
1.21644 -0.318063
1.21913 -0.320017
1.22183 -0.321865
1.22453 -0.323706
1.22723 -0.325479
1.22992 -0.327488
1.23262 -0.329577
1.23532 -0.331516
1.23802 -0.333443
1.24071 -0.335464
1.24341 -0.33753
1.24611 -0.339602
1.2488 -0.341725
1.2515 -0.344037
1.2542 -0.34637
1.2569 -0.348731
1.25959 -0.350918
1.26229 -0.353181
1.26499 -0.355349
1.26768 -0.357506
1.27038 -0.359659
1.27308 -0.361707
1.27578 -0.363779
1.27847 -0.36581
1.28117 -0.367945
1.28387 -0.370038
1.28656 -0.372021
1.28926 -0.374112
1.29196 -0.376253
1.29466 -0.378333
1.29735 -0.380385
1.30005 -0.38242
1.30275 -0.384414
1.30545 -0.38634
1.30814 -0.38844
1.31084 -0.390505
1.31354 -0.392703
1.31623 -0.394583
1.31893 -0.396652
1.32163 -0.39878
1.32433 -0.400857
1.32702 -0.402842
1.32972 -0.404797
1.33242 -0.406821
1.33511 -0.408822
1.33781 -0.411066
1.34051 -0.413184
1.34321 -0.415234
1.3459 -0.417388
1.3486 -0.41944
1.3513 -0.421183
1.35399 -0.422782
1.35669 -0.424517
1.35939 -0.426402
1.36209 -0.428191
1.36478 -0.429722
1.36748 -0.431325
1.37018 -0.432992
1.37288 -0.434585
1.37557 -0.435822
1.37827 -0.437249
1.38097 -0.438473
1.38366 -0.439696
1.38636 -0.440758
1.38906 -0.441492
1.39176 -0.441998
1.39445 -0.442525
1.39715 -0.442829
1.39985 -0.442797
1.40254 -0.442336
1.40524 -0.441544
1.40794 -0.440393
1.41064 -0.438827
1.41333 -0.436582
1.41603 -0.433435
1.41873 -0.429883
1.42142 -0.426058
1.42412 -0.421323
1.42682 -0.414313
1.42952 -0.405877
1.43221 -0.39703
1.43491 -0.385993
1.43761 -0.371064
1.44031 -0.353403
1.443 -0.331035
1.4457 -0.305788
1.4484 -0.275757
1.45109 -0.238524
1.45379 -0.186826
1.45649 -0.130812
1.45919 -0.0664486
1.46188 0.0145576
1.46458 0.117803
1.46728 0.237991
1.46997 0.375476
1.47267 0.541559
1.47537 0.734481
1.47807 0.959683
1.48076 1.2319
1.48346 1.52131
1.48616 1.83054
1.48885 2.20609
1.49155 2.60493
1.49425 2.97585
1.49695 3.3279
1.49964 3.73575
1.50234 4.05464
1.50504 4.29983
1.50774 4.46511
1.51043 4.53038
1.51313 4.48981
1.51583 4.34157
1.51852 4.11136
1.52122 3.82494
1.52392 3.46355
1.52662 3.04578
1.52931 2.6311
1.53201 2.23386
1.53471 1.85622
1.5374 1.49782
1.5401 1.17332
1.5428 0.878932
1.5455 0.624263
1.54819 0.431274
1.55089 0.250567
1.55359 0.0951223
1.55628 -0.0324758
1.55898 -0.127662
1.56168 -0.209189
1.56438 -0.279737
1.56707 -0.335664
1.56977 -0.382663
1.57247 -0.419806
1.57517 -0.450019
1.57786 -0.476059
1.58056 -0.49875
1.58326 -0.517359
1.58595 -0.532046
1.58865 -0.545564
1.59135 -0.558035
1.59405 -0.568266
1.59674 -0.577123
1.59944 -0.585092
1.60214 -0.592488
1.60483 -0.599221
1.60753 -0.605674
1.61023 -0.611465
1.61293 -0.616556
1.61562 -0.621836
1.61832 -0.626649
1.62102 -0.630927
1.62371 -0.634782
1.62641 -0.638687
1.62911 -0.642386
1.63181 -0.645795
1.6345 -0.648953
1.6372 -0.651877
1.6399 -0.654696
1.6426 -0.657441
1.64529 -0.660076
1.64799 -0.662603
1.65069 -0.664966
1.65338 -0.667481
1.65608 -0.669928
1.65878 -0.672112
1.66148 -0.674188
1.66417 -0.676592
1.66687 -0.67918
1.66957 -0.681865
1.67226 -0.684264
1.67496 -0.686817
1.67766 -0.689614
1.68036 -0.692234
1.68305 -0.694376
1.68575 -0.696552
1.68845 -0.698979
1.69114 -0.701413
1.69384 -0.703789
1.69654 -0.706275
1.69924 -0.708797
1.70193 -0.711291
1.70463 -0.713813
1.70733 -0.716164
1.71003 -0.718383
1.71272 -0.720427
1.71542 -0.722444
1.71812 -0.72461
1.72081 -0.72647
1.72351 -0.728497
1.72621 -0.730618
1.72891 -0.732754
1.7316 -0.73486
1.7343 -0.737157
1.737 -0.73945
1.73969 -0.74151
1.74239 -0.743539
1.74509 -0.745368
1.74779 -0.747242
1.75048 -0.749151
1.75318 -0.751095
1.75588 -0.753074
1.75857 -0.755092
1.76127 -0.757266
1.76397 -0.759454
1.76667 -0.761511
1.76936 -0.763419
1.77206 -0.765423
1.77476 -0.767313
1.77746 -0.769094
1.78015 -0.770769
1.78285 -0.772667
1.78555 -0.774496
1.78824 -0.776278
1.79094 -0.778075
1.79364 -0.780142
1.79634 -0.782264
1.79903 -0.784217
1.80173 -0.786048
1.80443 -0.787894
1.80712 -0.789723
1.80982 -0.791645
1.81252 -0.793568
1.81522 -0.795512
1.81791 -0.797626
1.82061 -0.799651
1.82331 -0.801537
1.826 -0.80349
1.8287 -0.805593
1.8314 -0.807776
1.8341 -0.809632
1.83679 -0.811419
1.83949 -0.813137
1.84219 -0.815266
1.84489 -0.817302
1.84758 -0.819262
1.85028 -0.82124
1.85298 -0.823251
1.85567 -0.825169
1.85837 -0.827003
1.86107 -0.828855
1.86377 -0.830679
1.86646 -0.832408
1.86916 -0.834009
1.87186 -0.835644
1.87455 -0.837472
1.87725 -0.839418
1.87995 -0.841453
1.88265 -0.843528
1.88534 -0.845454
1.88804 -0.847214
1.89074 -0.849144
1.89343 -0.851433
1.89613 -0.853495
1.89883 -0.855712
1.90153 -0.858091
1.90422 -0.860476
1.90692 -0.862586
1.90962 -0.864686
1.91232 -0.866873
1.91501 -0.869063
1.91771 -0.871206
1.92041 -0.873096
1.9231 -0.874985
1.9258 -0.876912
1.9285 -0.87888
1.9312 -0.880884
1.93389 -0.882779
1.93659 -0.884569
1.93929 -0.886173
1.94198 -0.887723
1.94468 -0.88926
1.94738 -0.890507
1.95008 -0.891876
1.95277 -0.893202
1.95547 -0.894562
1.95817 -0.895772
1.96086 -0.89687
1.96356 -0.898264
1.96626 -0.899524
1.96896 -0.900713
1.97165 -0.901801
1.97435 -0.902749
1.97705 -0.903407
1.97975 -0.90389
1.98244 -0.904323
1.98514 -0.904667
1.98784 -0.904804
1.99053 -0.904672
1.99323 -0.904358
1.99593 -0.903952
1.99863 -0.903379
2.00132 -0.902521
2.00402 -0.901329
2.00672 -0.900227
2.00941 -0.898892
2.01211 -0.897116
2.01481 -0.894492
2.01751 -0.892226
2.0202 -0.888882
2.0229 -0.884862
2.0256 -0.880314
2.02829 -0.87449
2.03099 -0.867259
2.03369 -0.859414
2.03639 -0.849825
2.03908 -0.837482
2.04178 -0.823899
2.04448 -0.808896
2.04718 -0.790591
2.04987 -0.768705
2.05257 -0.743186
2.05527 -0.713184
2.05796 -0.677839
2.06066 -0.636423
2.06336 -0.587512
2.06606 -0.522426
2.06875 -0.452216
2.07145 -0.370665
2.07415 -0.267888
2.07684 -0.134142
2.07954 0.0129271
2.08224 0.192432
2.08494 0.413587
2.08763 0.669021
2.09033 0.99279
2.09303 1.38292
2.09573 1.81772
2.09842 2.32919
2.10112 2.9674
2.10382 3.7147
2.10651 4.52014
2.10921 5.4427
2.11191 6.54055
2.11461 7.69058
2.1173 8.89923
2.12 10.1162
2.1227 11.4128
2.12539 12.6359
2.12809 13.7118
2.13079 14.5147
2.13349 15.0633
2.13618 15.3161
2.13888 15.2122
2.14158 14.7832
2.14427 14.0797
2.14697 13.0787
2.14967 11.8515
2.15237 10.544
2.15506 9.20305
2.15776 7.92405
2.16046 6.69649
2.16316 5.51916
2.16585 4.46249
2.16855 3.54101
2.17125 2.8023
2.17394 2.12364
2.17664 1.55577
2.17934 1.08171
2.18204 0.701502
2.18473 0.384922
2.18743 0.134695
2.19013 -0.0784005
2.19282 -0.254205
2.19552 -0.387625
2.19822 -0.495103
2.20092 -0.591974
2.20361 -0.669859
2.20631 -0.732593
2.20901 -0.783873
2.2117 -0.829334
2.2144 -0.867632
2.2171 -0.900151
2.2198 -0.928313
2.22249 -0.951464
2.22519 -0.971999
2.22789 -0.990605
2.23059 -1.00706
2.23328 -1.02022
2.23598 -1.03274
2.23868 -1.04487
2.24137 -1.05542
2.24407 -1.06455
2.24677 -1.07298
2.24947 -1.08059
2.25216 -1.08795
2.25486 -1.09488
2.25756 -1.10127
2.26025 -1.10713
2.26295 -1.11319
2.26565 -1.11866
2.26835 -1.12356
2.27104 -1.12813
2.27374 -1.13237
2.27644 -1.13615
2.27913 -1.13951
2.28183 -1.14262
2.28453 -1.14564
2.28723 -1.14877
2.28992 -1.15186
2.29262 -1.15474
2.29532 -1.1577
2.29802 -1.16104
2.30071 -1.16427
2.30341 -1.16686
2.30611 -1.17002
2.3088 -1.17306
2.3115 -1.17608
2.3142 -1.17884
2.3169 -1.18189
2.31959 -1.18489
2.32229 -1.18761
2.32499 -1.1902
2.32768 -1.19277
2.33038 -1.19534
2.33308 -1.19783
2.33578 -1.20034
2.33847 -1.20294
2.34117 -1.20538
2.34387 -1.20761
2.34656 -1.2099
2.34926 -1.21235
2.35196 -1.21478
2.35466 -1.21703
2.35735 -1.21938
2.36005 -1.22204
2.36275 -1.22484
2.36545 -1.22737
2.36814 -1.22993
2.37084 -1.23222
2.37354 -1.2347
2.37623 -1.23677
2.37893 -1.23861
2.38163 -1.2406
2.38433 -1.24302
2.38702 -1.24547
2.38972 -1.24759
2.39242 -1.24949
2.39511 -1.25155
2.39781 -1.25388
2.40051 -1.25614
2.40321 -1.25822
2.4059 -1.2602
2.4086 -1.26222
2.4113 -1.26404
2.41399 -1.26618
2.41669 -1.26795
2.41939 -1.26998
2.42209 -1.27194
2.42478 -1.27373
2.42748 -1.27564
2.43018 -1.27721
2.43288 -1.27898
2.43557 -1.28085
2.43827 -1.28268
2.44097 -1.28456
2.44366 -1.28602
2.44636 -1.28755
2.44906 -1.28916
2.45176 -1.29088
2.45445 -1.29266
2.45715 -1.29431
2.45985 -1.29589
2.46254 -1.2973
2.46524 -1.29879
2.46794 -1.30015
2.47064 -1.30133
2.47333 -1.3027
2.47603 -1.3039
2.47873 -1.3048
2.48142 -1.30481
2.48412 -1.30485
2.48682 -1.30485
2.48952 -1.30425
2.49221 -1.30352
2.49491 -1.3021
2.49761 -1.30045
2.50031 -1.29826
2.503 -1.29574
2.5057 -1.29277
2.5084 -1.28916
2.51109 -1.28493
2.51379 -1.28017
2.51649 -1.2747
2.51919 -1.26815
2.52188 -1.26021
2.52458 -1.25035
2.52728 -1.23983
2.52997 -1.22727
2.53267 -1.21218
2.53537 -1.19311
2.53807 -1.17291
2.54076 -1.14739
2.54346 -1.11801
2.54616 -1.0791
2.54885 -1.03449
2.55155 -0.980489
2.55425 -0.920141
2.55695 -0.841783
2.55964 -0.74473
2.56234 -0.632631
2.56504 -0.502763
2.56774 -0.342673
2.57043 -0.147052
2.57313 0.0878325
2.57583 0.363304
2.57852 0.679776
2.58122 1.05388
2.58392 1.49094
2.58662 2.01724
2.58931 2.55787
2.59201 3.18948
2.59471 3.87718
2.5974 4.64402
2.6001 5.34112
2.6028 6.09413
2.6055 6.81313
2.60819 7.42915
2.61089 7.91883
2.61359 8.26652
2.61628 8.419
2.61898 8.37397
2.62168 8.12944
2.62438 7.71672
2.62707 7.17469
2.62977 6.4815
2.63247 5.70551
2.63517 4.93599
2.63786 4.14498
2.64056 3.40086
2.64326 2.68514
2.64595 2.07094
2.64865 1.47096
2.65135 0.993945
2.65405 0.584474
2.65674 0.234012
2.65944 -0.0729231
2.66214 -0.312464
2.66483 -0.509917
2.66753 -0.674711
2.67023 -0.808378
2.67293 -0.919236
2.67562 -1.01094
2.67832 -1.08165
2.68102 -1.14077
2.68371 -1.19134
2.68641 -1.23319
2.68911 -1.26699
2.69181 -1.29515
2.6945 -1.32072
2.6972 -1.34168
2.6999 -1.36032
2.7026 -1.37569
2.70529 -1.38937
2.70799 -1.40163
2.71069 -1.41327
2.71338 -1.42261
2.71608 -1.43123
2.71878 -1.43901
2.72148 -1.44629
2.72417 -1.45254
2.72687 -1.45824
2.72957 -1.46314
2.73226 -1.46799
2.73496 -1.47284
2.73766 -1.4774
2.74036 -1.48127
2.74305 -1.4849
2.74575 -1.48861
2.74845 -1.49211
2.75114 -1.49505
2.75384 -1.49749
2.75654 -1.49995
2.75924 -1.50262
2.76193 -1.50522
2.76463 -1.50792
2.76733 -1.51028
2.77003 -1.51272
2.77272 -1.51494
2.77542 -1.5165
2.77812 -1.518
2.78081 -1.51937
2.78351 -1.52068
2.78621 -1.52197
2.78891 -1.5237
2.7916 -1.5254
2.7943 -1.52704
2.797 -1.5288
2.79969 -1.53081
2.80239 -1.53262
2.80509 -1.5344
2.80779 -1.5366
2.81048 -1.5391
2.81318 -1.54171
2.81588 -1.54428
2.81857 -1.54703
2.82127 -1.55018
2.82397 -1.55327
2.82667 -1.55604
2.82936 -1.55871
2.83206 -1.56132
2.83476 -1.56383
2.83746 -1.56572
2.84015 -1.56762
2.84285 -1.56977
2.84555 -1.57164
2.84824 -1.57318
2.85094 -1.5747
2.85364 -1.57629
2.85634 -1.57795
2.85903 -1.57948
2.86173 -1.58065
2.86443 -1.58186
2.86712 -1.58333
2.86982 -1.58475
2.87252 -1.58595
2.87522 -1.58688
2.87791 -1.5879
2.88061 -1.58896
2.88331 -1.58983
2.886 -1.59016
2.8887 -1.59013
2.8914 -1.59084
2.8941 -1.59104
2.89679 -1.59067
2.89949 -1.59039
2.90219 -1.58994
2.90489 -1.58951
2.90758 -1.58832
2.91028 -1.58732
2.91298 -1.58582
2.91567 -1.58399
2.91837 -1.58157
2.92107 -1.57857
2.92377 -1.57461
2.92646 -1.56957
2.92916 -1.56384
2.93186 -1.55721
2.93455 -1.54946
2.93725 -1.53993
2.93995 -1.52845
2.94265 -1.51477
2.94534 -1.49833
2.94804 -1.4789
2.95074 -1.45396
2.95343 -1.42412
2.95613 -1.39184
2.95883 -1.35047
2.96153 -1.29875
2.96422 -1.2359
2.96692 -1.16294
2.96962 -1.0731
2.97232 -0.96868
2.97501 -0.836433
2.97771 -0.679293
2.98041 -0.49835
2.9831 -0.285732
2.9858 -0.0316979
2.9885 0.26595
2.9912 0.599931
2.99389 0.977999
2.99659 1.41022
2.99929 1.87745
3.00198 2.36701
3.00468 2.87629
3.00738 3.38532
3.01008 3.89757
3.01277 4.32355
3.01547 4.67587
3.01817 4.9155
3.02086 5.04798
3.02356 5.03367
3.02626 4.89218
3.02896 4.62388
3.03165 4.24469
3.03435 3.78768
3.03705 3.27631
3.03975 2.73809
3.04244 2.20398
3.04514 1.68393
3.04784 1.19049
3.05053 0.745442
3.05323 0.351388
3.05593 0.0163531
3.05863 -0.278335
3.06132 -0.531454
3.06402 -0.73848
3.06672 -0.910225
3.06941 -1.05114
3.07211 -1.16676
3.07481 -1.25909
3.07751 -1.33842
3.0802 -1.39986
3.0829 -1.45135
3.0856 -1.49412
3.08829 -1.52935
3.09099 -1.55856
3.09369 -1.58277
3.09639 -1.60353
3.09908 -1.62128
3.10178 -1.63661
3.10448 -1.64988
3.10718 -1.66122
3.10987 -1.67147
3.11257 -1.68048
3.11527 -1.68807
3.11796 -1.69492
3.12066 -1.70152
3.12336 -1.70763
3.12606 -1.71228
3.12875 -1.71681
3.13145 -1.72151
3.13415 -1.72602
3.13684 -1.72987
3.13954 -1.73366
3.14224 -1.73717
3.14494 -1.74002
3.14763 -1.74238
3.15033 -1.74468
3.15303 -1.74703
3.15572 -1.74908
3.15842 -1.7509
3.16112 -1.75268
3.16382 -1.75435
3.16651 -1.75581
3.16921 -1.75718
3.17191 -1.75878
3.17461 -1.76056
3.1773 -1.76207
3.18 -1.76324
3.1827 -1.7646
3.18539 -1.76627
3.18809 -1.76781
3.19079 -1.76909
3.19349 -1.7704
3.19618 -1.77172
3.19888 -1.7726
3.20158 -1.77307
3.20427 -1.77369
3.20697 -1.77401
3.20967 -1.77392
3.21237 -1.7739
3.21506 -1.77388
3.21776 -1.77365
3.22046 -1.77333
3.22315 -1.77289
3.22585 -1.77245
3.22855 -1.77193
3.23125 -1.77095
3.23394 -1.77014
3.23664 -1.76939
3.23934 -1.76805
3.24204 -1.76603
3.24473 -1.76393
3.24743 -1.76113
3.25013 -1.75786
3.25282 -1.75404
3.25552 -1.74985
3.25822 -1.74555
3.26092 -1.74052
3.26361 -1.7346
3.26631 -1.72796
3.26901 -1.72067
3.2717 -1.71198
3.2744 -1.70225
3.2771 -1.69019
3.2798 -1.67588
3.28249 -1.65971
3.28519 -1.64131
3.28789 -1.61962
3.29058 -1.59355
3.29328 -1.56401
3.29598 -1.52934
3.29868 -1.48995
3.30137 -1.44192
3.30407 -1.38572
3.30677 -1.31755
3.30947 -1.24181
3.31216 -1.1487
3.31486 -1.03037
3.31756 -0.887836
3.32025 -0.727857
3.32295 -0.529947
3.32565 -0.287152
3.32835 0.0111539
3.33104 0.358106
3.33374 0.779991
3.33644 1.26474
3.33913 1.86199
3.34183 2.57888
3.34453 3.38454
3.34723 4.30128
3.34992 5.36271
3.35262 6.58204
3.35532 7.89007
3.35801 9.31241
3.36071 10.804
3.36341 12.2993
3.36611 13.7296
3.3688 15.0691
3.3715 16.1704
3.3742 17.0121
3.3769 17.4505
3.37959 17.5255
3.38229 17.2094
3.38499 16.4898
3.38768 15.4763
3.39038 14.1929
3.39308 12.741
3.39578 11.1734
3.39847 9.62765
3.40117 8.11666
3.40387 6.65705
3.40656 5.3629
3.40926 4.2228
3.41196 3.21386
3.41466 2.33868
3.41735 1.60093
3.42005 0.989506
3.42275 0.482442
3.42544 0.0690039
3.42814 -0.281247
3.43084 -0.559296
3.43354 -0.782278
3.43623 -0.962748
3.43893 -1.11174
3.44163 -1.23801
3.44433 -1.33679
3.44702 -1.41825
3.44972 -1.48589
3.45242 -1.54353
3.45511 -1.59197
3.45781 -1.63235
3.46051 -1.66648
3.46321 -1.69576
3.4659 -1.72151
3.4686 -1.74355
3.4713 -1.7619
3.47399 -1.77846
3.47669 -1.79294
3.47939 -1.80644
3.48209 -1.81762
3.48478 -1.82775
3.48748 -1.83685
3.49018 -1.84616
3.49288 -1.85338
3.49557 -1.85993
3.49827 -1.86623
3.50097 -1.87218
3.50366 -1.87719
3.50636 -1.88142
3.50906 -1.88559
3.51176 -1.88997
3.51445 -1.89374
3.51715 -1.89722
3.51985 -1.90071
3.52254 -1.90392
3.52524 -1.90676
3.52794 -1.90951
3.53064 -1.91221
3.53333 -1.91434
3.53603 -1.91607
3.53873 -1.91774
3.54142 -1.91907
3.54412 -1.91999
3.54682 -1.92063
3.54952 -1.9212
3.55221 -1.92192
3.55491 -1.92218
3.55761 -1.92266
3.56031 -1.92295
3.563 -1.92344
3.5657 -1.92341
3.5684 -1.92358
3.57109 -1.92357
3.57379 -1.92331
3.57649 -1.9226
3.57919 -1.92079
3.58188 -1.91793
3.58458 -1.91444
3.58728 -1.91069
3.58997 -1.9067
3.59267 -1.90191
3.59537 -1.89662
3.59807 -1.89122
3.60076 -1.88483
3.60346 -1.87655
3.60616 -1.86612
3.60885 -1.85478
3.61155 -1.84197
3.61425 -1.82513
3.61695 -1.80512
3.61964 -1.78285
3.62234 -1.75669
3.62504 -1.7254
3.62774 -1.68674
3.63043 -1.64035
3.63313 -1.58769
3.63583 -1.52497
3.63852 -1.44641
3.64122 -1.35064
3.64392 -1.23838
3.64662 -1.10609
3.64931 -0.946382
3.65201 -0.747311
3.65471 -0.503624
3.6574 -0.227817
3.6601 0.0982525
3.6628 0.489655
3.6655 0.965855
3.66819 1.50316
3.67089 2.11419
3.67359 2.7907
3.67628 3.5726
3.67898 4.44118
3.68168 5.3157
3.68438 6.23606
3.68707 7.12817
3.68977 7.97461
3.69247 8.72576
3.69517 9.3137
3.69786 9.71725
3.70056 9.89662
3.70326 9.83627
3.70595 9.54457
3.70865 9.03654
3.71135 8.34656
3.71405 7.508
3.71674 6.57676
3.71944 5.61608
3.72214 4.68824
3.72483 3.77226
3.72753 2.91626
3.73023 2.12848
3.73293 1.46527
3.73562 0.889964
3.73832 0.400881
3.74102 -0.0439403
3.74371 -0.388963
3.74641 -0.675966
3.74911 -0.908784
3.75181 -1.10856
3.7545 -1.2698
3.7572 -1.39804
3.7599 -1.50088
3.7626 -1.5868
3.76529 -1.65895
3.76799 -1.71742
3.77069 -1.7653
3.77338 -1.80458
3.77608 -1.83861
3.77878 -1.86737
3.78148 -1.89121
3.78417 -1.91099
3.78687 -1.92908
3.78957 -1.94455
3.79226 -1.95752
3.79496 -1.96866
3.79766 -1.97923
3.80036 -1.9881
3.80305 -1.99636
3.80575 -2.00321
3.80845 -2.00931
3.81114 -2.01491
3.81384 -2.02005
3.81654 -2.02465
3.81924 -2.02927
3.82193 -2.03363
3.82463 -2.03774
3.82733 -2.04145
3.83003 -2.04474
3.83272 -2.04801
3.83542 -2.05091
3.83812 -2.05358
3.84081 -2.05657
3.84351 -2.05996
3.84621 -2.06273
3.84891 -2.06523
3.8516 -2.06755
3.8543 -2.06991
3.857 -2.0711
3.85969 -2.07278
3.86239 -2.07393
3.86509 -2.07585
3.86779 -2.07773
3.87048 -2.07959
3.87318 -2.0812
3.87588 -2.08308
3.87857 -2.08486
3.88127 -2.08613
3.88397 -2.08755
3.88667 -2.08923
3.88936 -2.09063
3.89206 -2.09196
3.89476 -2.09363
3.89746 -2.09543
3.90015 -2.09732
3.90285 -2.09878
3.90555 -2.09897
3.90824 -2.09974
3.91094 -2.0999
3.91364 -2.09931
3.91634 -2.09931
3.91903 -2.09979
3.92173 -2.1002
3.92443 -2.1005
3.92712 -2.10076
3.92982 -2.10106
3.93252 -2.10139
3.93522 -2.10174
3.93791 -2.10225
3.94061 -2.10314
3.94331 -2.10393
3.946 -2.10454
3.9487 -2.10479
3.9514 -2.10501
3.9541 -2.10556
3.95679 -2.10556
3.95949 -2.10486
3.96219 -2.10434
3.96489 -2.10478
3.96758 -2.10553
3.97028 -2.10625
3.97298 -2.10743
3.97567 -2.10871
3.97837 -2.11039
3.98107 -2.11223
3.98377 -2.1148
3.98646 -2.11687
3.98916 -2.11954
3.99186 -2.12225
3.99455 -2.12489
3.99725 -2.12728
3.99995 -2.13021
4.00265 -2.1325
4.00534 -2.13421
4.00804 -2.13572
4.01074 -2.13707
4.01343 -2.13854
4.01613 -2.13979
4.01883 -2.14065
4.02153 -2.14196
4.02422 -2.14374
4.02692 -2.14529
4.02962 -2.14611
4.03232 -2.14729
4.03501 -2.14824
4.03771 -2.14989
4.04041 -2.15004
4.0431 -2.1498
4.0458 -2.14998
4.0485 -2.15056
4.0512 -2.15068
4.05389 -2.15117
4.05659 -2.15235
4.05929 -2.1535
4.06198 -2.15367
4.06468 -2.15406
4.06738 -2.15502
4.07008 -2.15562
4.07277 -2.15613
4.07547 -2.15686
4.07817 -2.15781
4.08086 -2.159
